"Small Bottom Face Disp"
"Time (sec)","Linear Displacement3 (mm)"
0,-37.790984320701
0.00666666666666667,-38.147827355658
0.0133333333333333,-38.5051347659674
0.02,-38.8613364616008
0.0266666666666667,-39.2151891784828
0.0333333333333333,-39.5648792824753
0.04,-39.9088754703337
0.0466666666666667,-40.2456425828906
0.0533333333333333,-40.5736145609902
0.06,-40.8913145621274
0.0666666666666667,-41.1972873820552
0.0733333333333333,-41.4904662847376
0.08,-41.7691031032489
0.0866666666666667,-42.0319094180034
0.0933333333333333,-42.2776798511442
0.1,-42.5052074329075
0.106666666666667,-42.7134004253027
0.113333333333333,-42.9012102376921
0.12,-43.067724011818
0.126666666666667,-43.2122585694671
0.133333333333333,-43.333950387105
0.14,-43.4321685341594
0.146666666666667,-43.506471541362
0.153333333333333,-43.5564614742913
0.16,-43.5818872049098
0.166666666666667,-43.5826230085399
0.173333333333333,-43.5586542813594
0.18,-43.5100650076272
0.186666666666667,-43.4371040183725
0.193333333333333,-43.3401307929776
0.2,-43.2196236145871
0.206666666666667,-43.0759668896787
0.213333333333333,-42.9099991055206
0.22,-42.7225609802893
0.226666666666666,-42.5145455074059
0.233333333333333,-42.2868566610443
0.24,-42.0407144140108
0.246666666666666,-41.777208334239
0.253333333333333,-41.497570522057
0.26,-41.2031633854934
0.266666666666666,-40.8952872554529
0.273333333333333,-40.5754667725884
0.28,-40.2451902435567
0.286666666666666,-39.906012096321
0.293333333333333,-39.5593557604856
0.3,-39.2068002856614
0.306666666666666,-38.8499318166687
0.313333333333333,-38.49045769645
0.32,-38.1299257655265
0.326666666666666,-37.7695822530369
0.333333333333333,-37.4112351189094
0.34,-37.0564571801869
0.346666666666666,-36.7065634898789
0.353333333333333,-36.3631818379063
0.36,-36.0277202039735
0.366666666666666,-35.7015132061975
0.373333333333333,-35.385838110232
0.38,-35.0820040747652
0.386666666666666,-34.7911983000736
0.393333333333333,-34.5142939384022
0.4,-34.252540991103
0.406666666666666,-34.0070292069004
0.413333333333333,-33.7785744808971
0.419999999999999,-33.5681358719289
0.426666666666666,-33.3765069287542
0.433333333333333,-33.2043729371097
0.439999999999999,-33.0523444519921
0.446666666666666,-32.9209647719637
0.453333333333333,-32.8107243532286
0.459999999999999,-32.722044953106
0.466666666666666,-32.6552440665486
0.473333333333333,-32.610557636281
0.479999999999999,-32.5881645280909
0.486666666666666,-32.5881428432062
0.493333333333333,-32.6104926578958
0.499999999999999,-32.6551872697628
0.506666666666666,-32.7221035245811
0.513333333333333,-32.8109848568466
0.519999999999999,-32.9215613682019
0.526666666666666,-33.0534374763526
0.533333333333333,-33.2061319771441
0.54,-33.3790605765263
0.546666666666666,-33.5716333776069
0.553333333333333,-33.7831900613168
0.56,-34.0129193043865
0.566666666666666,-34.2600045668776
0.573333333333333,-34.5234821551305
0.58,-34.8023952376283
0.586666666666667,-35.0956524547808
0.593333333333333,-35.4020554150706
0.6,-35.7204996954117
0.606666666666667,-36.0496857501145
0.613333333333333,-36.3882144720538
0.62,-36.7346785190293
0.626666666666667,-37.0878899534742
0.633333333333334,-37.446204497318
0.64,-37.8080118165802
0.646666666666667,-38.1717607396187
0.653333333333334,-38.5359309186724
0.66,-38.8988653312497
0.666666666666667,-39.2589211797656
0.673333333333334,-39.6145098297313
0.68,-39.9640660636978
0.686666666666667,-40.3058413732001
0.693333333333334,-40.6383986956263
0.700000000000001,-40.9600019259268
0.706666666666667,-41.2690798966414
0.713333333333334,-41.564166212523
0.720000000000001,-41.8438703833193
0.726666666666667,-42.1068041246618
0.733333333333334,-42.3516244715332
0.740000000000001,-42.5771795411092
0.746666666666668,-42.7822638312066
0.753333333333334,-42.9658419540134
0.760000000000001,-43.1270516228394
0.766666666666668,-43.2650282546163
0.773333333333334,-43.3790318733844
0.780000000000001,-43.4684838629423
0.786666666666668,-43.5329088982205
0.793333333333335,-43.5719332104244
0.800000000000001,-43.5853488868652
0.806666666666668,-43.5730887947157
0.813333333333335,-43.5352050136476
0.820000000000001,-43.4718785496398
0.826666666666668,-43.3834122008431
0.833333333333335,-43.2702447824119
0.840000000000002,-43.1329732738176
0.846666666666668,-42.9722360092865
0.853333333333335,-42.788857015044
0.860000000000002,-42.5837433952823
0.866666666666668,-42.3579672251805
0.873333333333335,-42.1126107094089
0.880000000000002,-41.848868370715
0.886666666666668,-41.5680832698959
0.893333333333335,-41.2716252462421
0.900000000000002,-40.9609382707435
0.906666666666669,-40.6375144343497
0.913333333333335,-40.3029834947575
0.920000000000002,-39.958738596448
0.926666666666669,-39.6064228973147
0.933333333333335,-39.2478817395829
0.940000000000002,-38.8847683793336
0.946666666666669,-38.518757754696
0.953333333333336,-38.1513987549776
0.960000000000002,-37.7843527733336
0.966666666666669,-37.4193603421315
0.973333333333336,-37.057901958242
0.980000000000002,-36.7016447172269
0.986666666666669,-36.3520691846928
0.993333333333336,-36.0106709084076
1,-35.6789749093875
1.00666666666667,-35.3582947237106
1.01333333333334,-35.0499144668439
1.02,-34.7551604846219
1.02666666666667,-34.4752064236498
1.03333333333334,-34.2111618603403
1.04,-33.9640717255685
1.04666666666667,-33.7349076436901
1.05333333333334,-33.5245622936091
1.06,-33.3338489533219
1.06666666666667,-33.163500913858
1.07333333333334,-33.0141628334081
1.08,-32.8864355308724
1.08666666666667,-32.7807875385325
1.09333333333333,-32.6975508831253
1.1,-32.6371027715241
1.10666666666667,-32.5997074919508
1.11333333333333,-32.5854996385531
1.12,-32.594531298979
1.12666666666667,-32.6267693804372
1.13333333333333,-32.6820956650597
1.14,-32.760378443916
1.14666666666667,-32.8613310744467
1.15333333333333,-32.9845850244539
1.16,-33.1296751700924
1.16666666666667,-33.2960754218413
1.17333333333333,-33.4831752884811
1.18,-33.6902818452383
1.18666666666667,-33.9165574975417
1.19333333333333,-34.1611461179426
1.2,-34.4232497441734
1.20666666666667,-34.7017146162857
1.21333333333333,-34.9954563273721
1.22,-35.3032298639807
1.22666666666667,-35.6239776938014
1.23333333333333,-35.9563518228618
1.24,-36.2988487428197
1.24666666666667,-36.6499627168103
1.25333333333333,-37.0081706038528
1.26,-37.372000654016
1.26666666666667,-37.7398435206879
1.27333333333333,-38.1100539888798
1.28,-38.4809541634767
1.28666666666667,-38.850842624903
1.29333333333333,-39.2180011120596
1.3,-39.5807025340906
1.30666666666667,-39.9372177542146
1.31333333333333,-40.2858615830942
1.32,-40.6249305038881
1.32666666666667,-40.9527309374066
1.33333333333333,-41.2676468349673
1.34,-41.5680793955566
1.34666666666667,-41.8525260548162
1.35333333333333,-42.1195492376835
1.36,-42.3677679860151
1.36666666666667,-42.5958695160872
1.37333333333333,-42.8026548534494
1.38,-42.9870636745975
1.38666666666667,-43.1481131342069
1.39333333333333,-43.2849444899833
1.4,-43.3968219715303
1.40666666666666,-43.4831390429929
1.41333333333333,-43.5434226108819
1.42,-43.5773363312537
1.42666666666666,-43.5846879254598
1.43333333333333,-43.5654158993595
1.44,-43.5196126302829
1.44666666666666,-43.4475115633809
1.45333333333333,-43.3494650695903
1.46,-43.2259853071901
1.46666666666666,-43.0777280752135
1.47333333333333,-42.905471822068
1.48,-42.710055729053
1.48666666666666,-42.492530897279
1.49333333333333,-42.2540336816922
1.5,-41.9958203764321
1.50666666666666,-41.7190962969555
1.51333333333333,-41.4253697794795
1.52,-41.1161206215651
1.52666666666666,-40.7929038104209
1.53333333333333,-40.4573283573437
1.54,-40.1110601223185
1.54666666666666,-39.7558339956482
1.55333333333333,-39.3932813115065
1.56,-39.0252327546413
1.56666666666666,-38.6534579190175
1.57333333333333,-38.2797095280089
1.58,-37.9057307992985
1.58666666666666,-37.5332562660547
1.59333333333333,-37.1640345900635
1.6,-36.799612500631
1.60666666666666,-36.4417320543257
1.61333333333333,-36.0919700088501
1.62,-35.7518585314556
1.62666666666666,-35.422859308236
1.63333333333333,-35.1063809961384
1.64,-34.8037643700297
1.64666666666666,-34.5162786308549
1.65333333333333,-34.2451399975134
1.66,-33.991378332711
1.66666666666666,-33.756108345793
1.67333333333333,-33.5402604429811
1.68,-33.3447074126297
1.68666666666666,-33.1702172441193
1.69333333333333,-33.0174802627814
1.7,-32.8870991587872
1.70666666666666,-32.779587639207
1.71333333333333,-32.6953699079154
1.72,-32.6347847288942
1.72666666666666,-32.5980590801697
1.73333333333333,-32.5853642627499
1.73999999999999,-32.5967575634025
1.74666666666666,-32.6322071442348
1.75333333333333,-32.6915918390999
1.75999999999999,-32.7746995894751
1.76666666666666,-32.8812267578688
1.77333333333333,-33.0107781810349
1.77999999999999,-33.1628673237732
1.78666666666666,-33.3369165500478
1.79333333333333,-33.5322573489582
1.79999999999999,-33.7481305061969
1.80666666666666,-33.9836614974226
1.81333333333333,-34.2380077377133
1.81999999999999,-34.5100517162069
1.82666666666666,-34.7987251754866
1.83333333333333,-35.1028049581479
1.83999999999999,-35.4210361024611
1.84666666666666,-35.7520728078743
1.85333333333333,-36.0944934873559
1.85999999999999,-36.4468069896509
1.86666666666666,-36.8074578271763
1.87333333333333,-37.1748317423595
1.87999999999999,-37.5472618422564
1.88666666666666,-37.9230353695393
1.89333333333333,-38.3004011023972
1.89999999999999,-38.6775773282393
1.90666666666666,-39.0527603287318
1.91333333333333,-39.4241333037497
1.91999999999999,-39.7898757037984
1.92666666666666,-40.1481731834207
1.93333333333333,-40.4971830042319
1.93999999999999,-40.8352906073221
1.94666666666666,-41.1605856310167
1.95333333333333,-41.4714909421039
1.95999999999999,-41.7663198086764
1.96666666666666,-42.0434998485296
1.97333333333333,-42.3016861814232
1.97999999999999,-42.539351509768
1.98666666666666,-42.7552947477514
1.99333333333333,-42.9482984775262
1.99999999999999,-43.1172907258853
2.00666666666666,-43.2614261292538
2.01333333333333,-43.3798197396166
2.01999999999999,-43.4718377754571
2.02666666666666,-43.5369510696302
2.03333333333333,-43.5747932901528
2.03999999999999,-43.5851413762695
2.04666666666666,-43.5679225407928
2.05333333333333,-43.5232158684013
2.05999999999999,-43.4512524086777
2.06666666666666,-43.3524136474868
2.07333333333333,-43.2272285774622
2.07999999999999,-43.0763699852415
2.08666666666666,-42.9006497377807
2.09333333333333,-42.7010130399851
2.09999999999999,-42.4785727519146
2.10666666666666,-42.2343849938952
2.11333333333333,-41.9699001305357
2.11999999999999,-41.6864463685096
2.12666666666666,-41.3855357619754
2.13333333333333,-41.0687737217424
2.14,-40.7377906648726
2.14666666666666,-40.3942977855664
2.15333333333333,-40.0400574847879
2.16,-39.6768717175847
2.16666666666666,-39.30657119004
2.17333333333333,-38.9310046472932
2.18,-38.5520283811429
2.18666666666666,-38.1714960557034
2.19333333333333,-37.791248929585
2.2,-37.4131065393586
2.20666666666666,-37.0388578983186
2.21333333333333,-36.6702532553363
2.22,-36.3089964479939
2.22666666666666,-35.9567378724671
2.23333333333333,-35.615068081639
2.24,-35.2855120140945
2.24666666666666,-34.9695238418423
2.25333333333333,-34.6684824232341
2.26,-34.383687332135
2.26666666666666,-34.1163554299078
2.27333333333333,-33.8676179427934
2.28,-33.6385179981638
2.28666666666667,-33.4300085791787
2.29333333333333,-33.2429508406964
2.3,-33.0781127450257
2.30666666666667,-32.9361679694293
2.31333333333333,-32.817695037392
2.32,-32.723176639139
2.32666666666667,-32.6529991075995
2.33333333333333,-32.6074520244165
2.34,-32.5867279450028
2.34666666666667,-32.590922185244
2.35333333333333,-32.6200322998754
2.36,-32.6739579920846
2.36666666666667,-32.7525010958942
2.37333333333333,-32.8553654679709
2.38,-32.9821569659918
2.38666666666667,-33.1323835392213
2.39333333333333,-33.3054554604877
2.4,-33.5006857287894
2.40666666666667,-33.7172906753685
2.41333333333333,-33.9543908115657
2.42,-34.2110119593515
2.42666666666667,-34.4860867134964
2.43333333333334,-34.7784562969504
2.44,-35.086872884222
2.44666666666667,-35.4100024871905
2.45333333333334,-35.7464285211462
2.46,-36.094656187921
2.46666666666667,-36.453117843052
2.47333333333334,-36.8201771420686
2.48,-37.1941304415097
2.48666666666667,-37.5732215972398
2.49333333333334,-37.9556454020579
2.5,-38.3395557156449
2.50666666666667,-38.7230745085502
2.51333333333334,-39.1043013605365
2.52,-39.4813233515831
2.52666666666667,-39.8522253350311
2.53333333333334,-40.2151006269278
2.54,-40.5680621805832
2.54666666666667,-40.9092543372791
2.55333333333334,-41.2368652322324
2.56,-41.5491398650667
2.56666666666667,-41.8443863944658
2.57333333333334,-42.1209888368124
2.58000000000001,-42.3774230599115
2.58666666666667,-42.6122639280511
2.59333333333334,-42.8241963807149
2.60000000000001,-43.0120252053849
2.60666666666667,-43.1746837162742
2.61333333333334,-43.311241579893
2.62000000000001,-43.4209119447077
2.62666666666667,-43.5030578122556
2.63333333333334,-43.5571972195055
2.64000000000001,-43.5830061092675
2.64666666666667,-43.5803206144516
2.65333333333334,-43.5491402865923
2.66000000000001,-43.4896274058378
2.66666666666667,-43.4021060304213
2.67333333333334,-43.2870595091552
2.68000000000001,-43.1451270102608
2.68666666666667,-42.9770991980353
2.69333333333334,-42.7839124417072
2.70000000000001,-42.5666400208584
2.70666666666667,-42.3264831711931
2.71333333333334,-42.0647724076819
2.72000000000001,-41.7829469423103
2.72666666666668,-41.4825494448885
2.73333333333334,-41.1652139581292
2.74000000000001,-40.8326545450351
2.74666666666668,-40.4866547960585
2.75333333333334,-40.1290563531142
2.76000000000001,-39.761743289864
2.76666666666668,-39.3866278395738
2.77333333333334,-39.005657670783
2.78000000000001,-38.6207837727813
2.78666666666668,-38.2339578354299
2.79333333333334,-37.8471191172542
2.80000000000001,-37.4621848966606
2.80666666666668,-37.0810424317975
2.81333333333334,-36.7055378422069
2.82000000000001,-36.3374598305101
2.82666666666668,-35.9785533696545
2.83333333333334,-35.6304966087339
2.84000000000001,-35.2948975539856
2.84666666666668,-34.9732878772954
2.85333333333335,-34.6671183953423
2.86000000000001,-34.3777564270611
2.86666666666668,-34.106479311712
2.87333333333335,-33.8544666923325
2.88000000000001,-33.6228159596929
2.88666666666668,-33.4125227069546
2.89333333333335,-33.2244845999059
2.90000000000001,-33.0594986273934
2.90666666666668,-32.918261219322
2.91333333333335,-32.8013671675935
2.92000000000001,-32.7093060523714
2.92666666666668,-32.6424681939993
2.93333333333335,-32.6011399023506
2.94000000000001,-32.5855028333758
2.94666666666668,-32.5956342080182
2.95333333333335,-32.6315068363468
2.96000000000001,-32.6929885467578
2.96666666666668,-32.7798449586647
2.97333333333335,-32.8917355886465
2.98000000000001,-33.0282144014442
2.98666666666668,-33.1887307139075
2.99333333333335,-33.3726301761004
3.00000000000002,-33.5791539997996
3.00666666666668,-33.8074402530068
3.01333333333335,-34.056534065437
3.02000000000002,-34.3253671674929
3.02666666666668,-34.6127765256037
3.03333333333335,-34.9175024207557
3.04000000000002,-35.2381923631174
3.04666666666668,-35.5734010075467
3.05333333333335,-35.9216070624987
3.06000000000002,-36.2812001208174
3.06666666666668,-36.6504891110043
3.07333333333335,-37.0277151579909
3.08000000000002,-37.4110582785458
3.08666666666668,-37.7986402922925
3.09333333333335,-38.1885438499136
3.10000000000002,-38.5788141912633
3.10666666666668,-38.9674551357512
3.11333333333335,-39.3524587538267
3.12000000000002,-39.7318128493323
3.12666666666668,-40.1035079546306
3.13333333333335,-40.4655601209956
3.14000000000002,-40.8160136494278
3.14666666666669,-41.1529437311788
3.15333333333335,-41.4744859235186
3.16000000000002,-41.7788455154192
3.16666666666669,-42.0643055379916
3.17333333333335,-42.3292514371318
3.18000000000002,-42.5721628801982
3.18666666666669,-42.7916333726463
3.19333333333335,-42.9863851874443
3.20000000000002,-43.1552773613042
3.20666666666669,-43.2973129514631
3.21333333333335,-43.4116530533483
3.22000000000002,-43.4976079369362
3.22666666666669,-43.5546566884315
3.23333333333335,-43.5824480925897
3.24000000000002,-43.5808029781479
3.24666666666669,-43.5497151007136
3.25333333333335,-43.4893505080238
3.26000000000002,-43.4000496126409
3.26666666666669,-43.2823232416909
3.27333333333335,-43.1368485650662
3.28000000000002,-42.96446381459
3.28666666666669,-42.7661532967718
3.29333333333336,-42.5430620208524
3.30000000000002,-42.2964697295305
3.30666666666669,-42.0277844753272
3.31333333333336,-41.7385356412417
3.32000000000002,-41.4303431394485
3.32666666666669,-41.1049452296038
3.33333333333336,-40.7641586395689
3.34000000000002,-40.4098689259852
3.34666666666669,-40.0440235224754
3.35333333333336,-39.668594716182
3.36000000000002,-39.2856126076991
3.36666666666669,-38.8971236313656
3.37333333333336,-38.5051780871599
3.38000000000002,-38.1118256078613
3.38666666666669,-37.7190777993702
3.39333333333336,-37.3289474513725
3.40000000000002,-36.9434059050226
3.40666666666669,-36.5643737230751
3.41333333333336,-36.193719325421
3.42000000000002,-35.8332255214295
3.42666666666669,-35.4846354534831
3.43333333333336,-35.1496064246885
3.44000000000003,-34.8297095928918
3.44666666666669,-34.5264288650846
3.45333333333336,-34.2411401030099
3.46000000000003,-33.9751499887474
3.46666666666669,-33.7296549540869
3.47333333333336,-33.50574863808
3.48000000000003,-33.3044164659423
3.48666666666669,-33.1265384984239
3.49333333333336,-32.9728968263994
3.50000000000003,-32.8441597945995
3.50666666666669,-32.7408866346121
3.51333333333336,-32.6635222337393
3.52000000000003,-32.6124082880656
3.52666666666669,-32.5877740797227
3.53333333333336,-32.5897362967195
3.54000000000003,-32.6183001423981
3.54666666666669,-32.6733627105506
3.55333333333336,-32.7547061668278
3.56000000000003,-32.8620010220491
3.56666666666669,-32.9948051380239
3.57333333333336,-33.1525723869689
3.58000000000003,-33.3346398959852
3.5866666666667,-33.5402304217049
3.59333333333336,-33.7684591078364
3.60000000000003,-34.0183334982995
3.6066666666667,-34.2887654760591
3.61333333333336,-34.5785399141707
3.62000000000003,-34.8863461707503
3.6266666666667,-35.2107711631091
3.63333333333336,-35.5503282257729
3.64000000000003,-35.9034097771825
3.6466666666667,-36.2683254017228
3.65333333333336,-36.643305527903
3.66000000000003,-37.026519817254
3.6666666666667,-37.4160623427042
3.67333333333336,-37.8099540611098
3.68000000000003,-38.2061749444267
3.6866666666667,-38.602669709069
3.69333333333336,-38.997366504569
3.70000000000003,-39.3881446198732
3.7066666666667,-39.772891007156
3.71333333333336,-40.1494989717046
3.72000000000003,-40.5159081621148
3.7266666666667,-40.8700491911189
3.73333333333337,-41.209916523552
3.74000000000003,-41.5335643224961
3.7466666666667,-41.8391450555151
3.75333333333337,-42.1248645119242
3.76000000000003,-42.3890405878385
3.7666666666667,-42.6301061819352
3.77333333333337,-42.8466357452083
3.78000000000003,-43.0373185460337
3.7866666666667,-43.2009963881126
3.79333333333337,-43.336670359059
3.80000000000003,-43.4435137138337
3.8066666666667,-43.5208598267438
3.81333333333337,-43.5682220485541
3.82000000000003,-43.5852974724407
3.8266666666667,-43.5719665528839
3.83333333333337,-43.5282926922003
3.84000000000003,-43.4545266896503
3.8466666666667,-43.3511036323401
3.85333333333337,-43.2186291441613
3.86000000000003,-43.0578920363379
3.8666666666667,-42.8698514654242
3.87333333333337,-42.6556281294182
3.88000000000004,-42.4164766006093
3.8866666666667,-42.153816460681
3.89333333333337,-41.8691963318612
3.90000000000004,-41.5642850063303
3.9066666666667,-41.2408313592994
3.91333333333337,-40.9007176228526
3.92000000000004,-40.5458959299465
3.9266666666667,-40.1783846907284
3.93333333333337,-39.8002275365967
3.94000000000004,-39.4135543180868
3.9466666666667,-39.0205033325441
3.95333333333337,-38.6232185896147
3.96000000000004,-38.2238297181808
3.9666666666667,-37.8244892172626
3.97333333333337,-37.4273099204024
3.98000000000004,-37.0343515077612
3.9866666666667,-36.6476346270375
