"Small Bottom Face Disp"
"Time (sec)","Linear Displacement3 (mm)"
0,-37.790984320701
0.00666666666666667,-38.1477946761175
0.0133333333333333,-38.5050196162871
0.02,-38.8611376924962
0.0266666666666667,-39.2146152899872
0.0333333333333333,-39.5639136920425
0.04,-39.9074964406688
0.0466666666666667,-40.2438369472683
0.0533333333333333,-40.5714263011255
0.06,-40.8887812185975
0.0666666666666667,-41.1944520716644
0.0733333333333333,-41.4870309310606
0.08,-41.7651595566216
0.0866666666666667,-42.0275372658037
0.0933333333333333,-42.2729286105793
0.1,-42.5001707931026
0.106666666666667,-42.7081807516639
0.113333333333333,-42.895961850488
0.12,-43.0626101098478
0.126666666666667,-43.2073199167066
0.133333333333333,-43.3293891606192
0.14,-43.4282237448344
0.146666666666667,-43.503341428391
0.153333333333333,-43.5543749613843
0.16,-43.5810744824387
0.166666666666667,-43.5833091546465
0.173333333333333,-43.5610680237469
0.18,-43.5144600900245
0.186666666666667,-43.4437135932133
0.193333333333333,-43.3491745175062
0.2,-43.2313043315035
0.206666666666667,-43.0906769854847
0.213333333333333,-42.9279751956793
0.22,-42.743986052134
0.226666666666666,-42.5395959932635
0.233333333333333,-42.3157851961144
0.24,-42.0736214367142
0.246666666666666,-41.8142534795222
0.253333333333333,-41.5389040588876
0.26,-41.2488625184938
0.266666666666666,-40.9454771769629
0.273333333333333,-40.6301474890932
0.28,-40.3043160725596
0.286666666666666,-39.9694606693283
0.293333333333333,-39.6270861095257
0.3,-39.2787163430775
0.306666666666666,-38.9258866011506
0.313333333333333,-38.5701357453357
0.32,-38.2129988576946
0.326666666666666,-37.8560001193406
0.333333333333333,-37.5006460192417
0.34,-37.148418928547
0.346666666666666,-36.8007710690643
0.353333333333333,-36.4591188976883
0.36,-36.1248379217373
0.366666666666666,-35.7992579534155
0.373333333333333,-35.483658805124
0.38,-35.1792664211908
0.386666666666666,-34.8872494359053
0.393333333333333,-34.6087161426035
0.4,-34.3447118540371
0.406666666666666,-34.0962166304385
0.413333333333333,-33.8641433486011
0.419999999999999,-33.6493360829584
0.426666666666666,-33.4525687680805
0.433333333333333,-33.274544111203
0.439999999999999,-33.1158927233391
0.446666666666666,-32.9771724381803
0.453333333333333,-32.8588677893052
0.459999999999999,-32.7613896181518
0.466666666666666,-32.6850747876984
0.473333333333333,-32.6301859797817
0.479999999999999,-32.5969115573813
0.486666666666666,-32.5853654769549
0.493333333333333,-32.595587239941
0.499999999999999,-32.6275418767128
0.506666666666666,-32.6811199607985
0.513333333333333,-32.7561376551962
0.519999999999999,-32.8523367974188
0.526666666666666,-32.9693850337694
0.533333333333333,-33.1068760175739
0.54,-33.2643296898108
0.546666666666666,-33.4411926640185
0.553333333333333,-33.6368387403644
0.56,-33.850569576284
0.566666666666666,-34.0816155430712
0.573333333333333,-34.3291367991518
0.58,-34.5922246114705
0.586666666666667,-34.8699029563994
0.593333333333333,-35.161130430823
0.6,-35.4648025025303
0.606666666666667,-35.7797541267601
0.613333333333333,-36.1047627526979
0.62,-36.4385517399414
0.626666666666667,-36.7797942004835
0.633333333333334,-37.127117276657
0.64,-37.4791068598285
0.646666666666667,-37.8343127485072
0.653333333333334,-38.1912542380513
0.66,-38.5484261274312
0.666666666666667,-38.904305121667
0.673333333333334,-39.2573566017228
0.68,-39.6060417269596
0.686666666666667,-39.9488248288332
0.693333333333334,-40.2841810485188
0.700000000000001,-40.6106041656553
0.706666666666667,-40.9266145605419
0.713333333333334,-41.2307672479818
0.720000000000001,-41.5216599176344
0.726666666666667,-41.7979409132561
0.733333333333334,-42.058317081644
0.740000000000001,-42.3015614214617
0.746666666666668,-42.526520462426
0.753333333333334,-42.7321213065737
0.760000000000001,-42.9173782654722
0.766666666666668,-43.0813990302569
0.773333333333334,-43.2233903152195
0.780000000000001,-43.3426629202732
0.786666666666668,-43.4386361629196
0.793333333333335,-43.5108416362549
0.800000000000001,-43.5589262560081
0.806666666666668,-43.5826545665035
0.813333333333335,-43.58191028271
0.820000000000001,-43.5566970530801
0.826666666666668,-43.5071384356032
0.833333333333335,-43.433477087311
0.840000000000002,-43.3360731752827
0.846666666666668,-43.2154020249133
0.853333333333335,-43.0720510287314
0.860000000000002,-42.9067158463045
0.866666666666668,-42.7201959326482
0.873333333333335,-42.513389438973
0.880000000000002,-42.2872875354883
0.886666666666668,-42.0429682112349
0.893333333333335,-41.7815896104792
0.900000000000002,-41.5043829689946
0.906666666666669,-41.2126452165189
0.913333333333335,-40.9077313137741
0.920000000000002,-40.5910463936116
0.926666666666669,-40.2640377760933
0.933333333333335,-39.9281869266262
0.940000000000002,-39.5850014246435
0.946666666666669,-39.2360070077928
0.953333333333336,-38.8827397532082
0.960000000000002,-38.5267384532574
0.966666666666669,-38.1695372382523
0.973333333333336,-37.8126584930945
0.980000000000002,-37.4576061087841
0.986666666666669,-37.1058591032959
0.993333333333336,-36.7588656396235
1,-36.4180374619589
1.00666666666667,-36.0847447641363
1.01333333333334,-35.7603114977522
1.02,-35.4460111209153
1.02666666666667,-35.1430627824792
1.03333333333334,-34.8526279309867
1.04,-34.5758073324881
1.04666666666667,-34.3136384769644
1.05333333333334,-34.0670933493512
1.06,-33.8370765381578
1.06666666666667,-33.6244236524334
1.07333333333334,-33.4299000163621
1.08,-33.254199610052
1.08666666666667,-33.0979442251146
1.09333333333333,-32.9616828043631
1.1,-32.8458909363537
1.10666666666667,-32.7509704774984
1.11333333333333,-32.6772492770349
1.12,-32.6249809831717
1.12666666666667,-32.5943449121794
1.13333333333333,-32.5854459659887
1.14,-32.5983145879079
1.14666666666667,-32.6329067503169
1.15333333333333,-32.6891039725438
1.16,-32.766713371516
1.16666666666667,-32.8654677521144
1.17333333333333,-32.9850257483722
1.18,-33.1249720306716
1.18666666666667,-33.2848175978251
1.19333333333333,-33.464000176309
1.2,-33.6618847518672
1.20666666666667,-33.8777642611677
1.21333333333333,-34.1108604730859
1.22,-34.3603250904731
1.22666666666667,-34.625241103873
1.23333333333333,-34.9046244285454
1.24,-35.1974258553045
1.24666666666667,-35.5025333440689
1.25333333333333,-35.8187746866362
1.26,-36.1449205620606
1.26666666666667,-36.4796880041426
1.27333333333333,-36.8217442959905
1.28,-37.1697113014391
1.28666666666667,-37.52217023739
1.29333333333333,-37.8776668849683
1.3,-38.2347172308712
1.30666666666667,-38.5918135235388
1.31333333333333,-38.9474307219302
1.32,-39.3000333078649
1.32666666666667,-39.6480824262323
1.33333333333333,-39.9900433110029
1.34,-40.3243929490245
1.34666666666667,-40.649627928169
1.35333333333333,-40.96427241162
1.36,-41.2668861760467
1.36666666666667,-41.5560726481733
1.37333333333333,-41.8304868718895
1.38,-42.0888433365854
1.38666666666667,-42.3299235968764
1.39333333333333,-42.5525836143006
1.4,-42.7557607529178
1.40666666666666,-42.9384803629979
1.41333333333333,-43.0998618901046
1.42,-43.2391244508188
1.42666666666666,-43.3555918210379
1.43333333333333,-43.4486967881617
1.44,-43.517984824463
1.44666666666666,-43.5631170454497
1.45333333333333,-43.5838724239796
1.46,-43.5801492381942
1.46666666666666,-43.5519657389045
1.47333333333333,-43.4994600298033
1.48,-43.4228891616911
1.48666666666666,-43.3226274497106
1.49333333333333,-43.1991640302791
1.5,-43.0530996819043
1.50666666666666,-42.8851429412809
1.51333333333333,-42.6961055528867
1.52,-42.4868972966653
1.52666666666666,-42.2585202441827
1.53333333333333,-42.0120624988252
1.54,-41.7486914800762
1.54666666666666,-41.4696468156001
1.55333333333333,-41.1762329077281
1.56,-40.8698112429226
1.56666666666666,-40.5517925138642
1.57333333333333,-40.2236286239373
1.58,-39.8868046430848
1.58666666666666,-39.5428307822626
1.59333333333333,-39.193234451089
1.6,-38.8395524597987
1.60666666666666,-38.4833234223289
1.61333333333333,-38.1260804123915
1.62,-37.7693439187878
1.62666666666666,-37.4146151401352
1.63333333333333,-37.0633696527031
1.64,-36.7170514783352
1.64666666666666,-36.3770675725888
1.65333333333333,-36.0447827463948
1.66,-35.7215150278495
1.66666666666666,-35.4085314643267
1.67333333333333,-35.1070443590531
1.68,-34.8182079307271
1.68666666666666,-34.5431153797699
1.69333333333333,-34.2827963404462
1.7,-34.0382146944465
1.70666666666666,-33.810266718612
1.71333333333333,-33.5997795373323
1.72,-33.4075098487721
1.72666666666666,-33.2341428934557
1.73333333333333,-33.0802916338594
1.73999999999999,-32.946496114473
1.74666666666666,-32.8332229732689
1.75333333333333,-32.7408650775909
1.75999999999999,-32.6697412600898
1.76666666666666,-32.6200961334268
1.77333333333333,-32.592099965957
1.77999999999999,-32.5858486044361
1.78666666666666,-32.6013634338693
1.79333333333333,-32.6385913688848
1.79999999999999,-32.6974048753709
1.80666666666666,-32.7776020255011
1.81333333333333,-32.8789065935954
1.81999999999999,-33.0009682044589
1.82666666666666,-33.143362549825
1.83333333333333,-33.3055916922162
1.83999999999999,-33.4870844788779
1.84666666666666,-33.6871970913284
1.85333333333333,-33.905213758469
1.85999999999999,-34.1403476630194
1.86666666666666,-34.3917420722468
1.87333333333333,-34.6584717244776
1.87999999999999,-34.9395445026869
1.88666666666666,-35.2339034255205
1.89333333333333,-35.5404289843946
1.89999999999999,-35.8579418528472
1.90666666666666,-36.1852059910857
1.91333333333333,-36.5209321647227
1.91999999999999,-36.863781892062
1.92666666666666,-37.2123718290513
1.93333333333333,-37.5652785952387
1.93999999999999,-37.9210440378495
1.94666666666666,-38.27818092455
1.95333333333333,-38.6351790486974
1.95999999999999,-38.9905117240242
1.96666666666666,-39.3426426388983
1.97333333333333,-39.6900330336665
1.97999999999999,-40.0311491582677
1.98666666666666,-40.3644699614092
1.99333333333333,-40.688494957254
1.99999999999999,-41.0017522108777
2.00666666666666,-41.3028063798015
2.01333333333333,-41.5902667457755
2.01999999999999,-41.8627951687306
2.02666666666666,-42.1191138934705
2.03333333333333,-42.3580131392688
2.03999999999999,-42.578358403067
2.04666666666666,-42.7790974084325
2.05333333333333,-42.9592666347951
2.05999999999999,-43.1179973647074
2.06666666666666,-43.2545211909024
2.07333333333333,-43.3681749297058
2.07999999999999,-43.4584048928087
2.08666666666666,-43.5247704754659
2.09333333333333,-43.5669470257494
2.09999999999999,-43.5847279664908
2.10666666666666,-43.5780261488863
2.11333333333333,-43.5468744243321
2.11999999999999,-43.4914254288118
2.12666666666666,-43.4119505819774
2.13333333333333,-43.3088383108596
2.14,-43.1825915158226
2.14666666666666,-43.0338243038434
2.15333333333333,-42.8632580213639
2.16,-42.6717166257373
2.16666666666666,-42.4601214405901
2.17333333333333,-42.2294853461558
2.18,-41.9809064607276
2.18666666666666,-41.7155613737602
2.19333333333333,-41.434697994744
2.2,-41.139628084735
2.20666666666666,-40.8317195392945
2.21333333333333,-40.5123884925517
2.22,-40.1830913121159
2.22666666666666,-39.8453165536463
2.23333333333333,-39.500576942037
2.24,-39.1504014434337
2.24666666666666,-38.7963274887087
2.25333333333333,-38.4398934046571
2.26,-38.0826311041128
2.26666666666666,-37.7260590805293
2.27333333333333,-37.3716757464216
2.28,-37.0209531485623
2.28666666666667,-36.6753310860789
2.29333333333333,-36.3362116507502
2.3,-36.0049542019797
2.30666666666667,-35.6828707822614
2.31333333333333,-35.371221972567
2.32,-35.0712131810943
2.32666666666667,-34.7839913533168
2.33333333333333,-34.5106420863592
2.34,-34.2521871264547
2.34666666666667,-34.0095822246796
2.35333333333333,-33.7837153233472
2.36,-33.5754050433797
2.36666666666667,-33.3853994417005
2.37333333333333,-33.2143750071493
2.38,-33.0629358636345
2.38666666666667,-32.931613150127
2.39333333333333,-32.8208645486584
2.4,-32.7310739336229
2.40666666666667,-32.6625511183648
2.41333333333333,-32.6155316781754
2.42,-32.5901768323629
2.42666666666667,-32.586573371921
2.43333333333334,-32.6047336234255
2.44,-32.644595444069
2.44666666666667,-32.7060222471054
2.45333333333334,-32.7888030613585
2.46,-32.8926526327625
2.46666666666667,-33.0172115800741
2.47333333333334,-33.1620466208453
2.48,-33.3266508874021
2.48666666666667,-33.5104443558557
2.49333333333334,-33.7127744140133
2.5,-33.9329165963827
2.50666666666667,-34.1700755162193
2.51333333333334,-34.4233860256821
2.52,-34.691914635604
2.52666666666667,-34.9746612260988
2.53333333333334,-35.2705610781899
2.54,-35.5784872548493
2.54666666666667,-35.8972533572648
2.55333333333334,-36.2256166788407
2.56,-36.5622817753919
2.56666666666667,-36.9059044652906
2.57333333333334,-37.2550962680025
2.58000000000001,-37.6084292836173
2.58666666666667,-37.9644415097069
2.59333333333334,-38.3216425852642
2.60000000000001,-38.6785199446906
2.60666666666667,-39.0335453579479
2.61333333333334,-39.3851818261959
2.62000000000001,-39.731890795636
2.62666666666667,-40.0721396460052
2.63333333333334,-40.4044094043322
2.64000000000001,-40.7272026292953
2.64666666666667,-41.0390514069196
2.65333333333334,-41.3385253944941
2.66000000000001,-41.6242398465607
2.66666666666667,-41.8948635546795
2.67333333333334,-42.1491266314433
2.68000000000001,-42.3858280689191
2.68666666666667,-42.6038430023442
2.69333333333334,-42.8021296114716
2.70000000000001,-42.9797355944336
2.70666666666667,-43.1358041523152
2.71333333333334,-43.2695794267559
2.72000000000001,-43.3804113377628
2.72666666666668,-43.4677597744502
2.73333333333334,-43.5311980975409
2.74000000000001,-43.5704159190917
2.74666666666668,-43.5852211319514
2.75333333333334,-43.5755411688383
2.76000000000001,-43.5414234785407
2.76666666666668,-43.4830352145125
2.77333333333334,-43.4006621389548
2.78000000000001,-43.2947067532635
2.78666666666668,-43.1656856733784
2.79333333333334,-43.0142262760028
2.80000000000001,-42.8410626487896
2.80666666666668,-42.6470308843088
2.81333333333334,-42.4330637638459
2.82000000000001,-42.2001848827426
2.82666666666668,-41.9495022740023
2.83333333333334,-41.6822015911663
2.84000000000001,-41.399538914969
2.84666666666668,-41.1028332509291
2.85333333333335,-40.7934587867989
2.86000000000001,-40.4728369796345
2.86666666666668,-40.1424285421536
2.87333333333335,-39.8037253970122
2.88000000000001,-39.4582426656718
2.88666666666668,-39.10751075568
2.89333333333335,-38.7530676065017
2.90000000000001,-38.3964511495818
2.90666666666668,-38.0391920331812
2.91333333333335,-37.6828066568049
2.92000000000001,-37.328790553848
2.92666666666668,-36.978612154538
2.93333333333335,-36.633706954493
2.94000000000001,-36.2954721073588
2.94666666666668,-35.9652614531829
2.95333333333335,-35.6443809875437
2.96000000000001,-35.3340847701163
2.96666666666668,-35.0355712654143
2.97333333333335,-34.7499801030185
2.98000000000001,-34.4783892397615
2.98666666666668,-34.221812502153
2.99333333333335,-33.9811974838588
3.00000000000002,-33.7574237703218
3.00666666666668,-33.5513014606508
3.01333333333335,-33.3635699557097
3.02000000000002,-33.1948969809014
3.02666666666668,-33.0458778124279
3.03333333333335,-32.9170346767907
3.04000000000002,-32.8088162949209
3.04666666666668,-32.7215975445393
3.05333333333335,-32.6556792170859
3.06000000000002,-32.6112878487537
3.06666666666668,-32.5885756087455
3.07333333333335,-32.5876202317645
3.08000000000002,-32.6084249858849
3.08666666666668,-32.6509186712358
3.09333333333335,-32.7149556493072
3.10000000000002,-32.8003159070607
3.10666666666668,-32.9067051643294
3.11333333333335,-33.0337550371402
3.12000000000002,-33.1810232735113
3.12666666666668,-33.3479940818877
3.13333333333335,-33.5340785756147
3.14000000000002,-33.7386153596265
3.14666666666669,-33.9608712877895
3.15333333333335,-34.2000424210213
3.16000000000002,-34.4552552173405
3.16666666666669,-34.7255679853592
3.17333333333335,-35.0099726323537
3.18000000000002,-35.307396736922
3.18666666666669,-35.616705974344
3.19333333333335,-35.9367069200998
3.20000000000002,-36.2661502535958
3.20666666666669,-36.6037343800227
3.21333333333335,-36.9481094834872
3.22000000000002,-37.2978820191721
3.22666666666669,-37.6516196463861
3.23333333333335,-38.0078565980517
3.24000000000002,-38.3650994755679
3.24666666666669,-38.7218334511816
3.25333333333335,-39.0765288531527
3.26000000000002,-39.4276481022169
3.26666666666669,-39.7736529612855
3.27333333333335,-40.1130120540882
3.28000000000002,-40.4442086026986
3.28666666666669,-40.7657483286865
3.29333333333336,-41.0761674581196
3.30000000000002,-41.3740407668852
3.30666666666669,-41.6579895998733
3.31333333333336,-41.9266897955254
3.32000000000002,-42.1788794461371
3.32666666666669,-42.4133664241207
3.33333333333336,-42.6290356051962
3.34000000000002,-42.8248557211603
3.34666666666669,-42.9998857774618
3.35333333333336,-43.153280974234
3.36000000000002,-43.2842980736574
3.36666666666669,-43.3923001614742
3.37333333333336,-43.4767607560845
3.38000000000002,-43.5372672248398
3.38666666666669,-43.5735234738325
3.39333333333336,-43.5853518845724
3.40000000000002,-43.5726944783531
3.40666666666669,-43.5356132967383
3.41333333333336,-43.4742899944301
3.42000000000002,-43.3890246484934
3.42666666666669,-43.2802337958253
3.43333333333336,-43.1484477182803
3.44000000000003,-42.9943070023212
3.44666666666669,-42.8185584071288
3.45333333333336,-42.6220500817714
3.46000000000003,-42.4057261782068
3.46666666666669,-42.1706209124701
3.47333333333336,-41.9178521313342
3.48000000000003,-41.6486144459173
3.48666666666669,-41.3641719971129
3.49333333333336,-41.0658509202642
3.50000000000003,-40.7550315781548
3.50666666666669,-40.4331406321194
3.51333333333336,-40.1016430208637
3.52000000000003,-39.7620339154353
3.52666666666669,-39.4158307167182
3.53333333333336,-39.0645651588688
3.54000000000003,-38.7097755783269
3.54666666666669,-38.3529994034942
3.55333333333336,-37.995765914953
3.56000000000003,-37.6395893203153
3.56666666666669,-37.2859621815457
3.57333333333336,-36.9363492260258
3.58000000000003,-36.5921815658464
3.5866666666667,-36.2548513429576
3.59333333333336,-35.9257068110161
3.60000000000003,-35.6060478581599
3.6066666666667,-35.2971219686429
3.61333333333336,-35.0001206153821
3.62000000000003,-34.7161760701056
3.6266666666667,-34.4463586130241
3.63333333333336,-34.1916741198503
3.64000000000003,-33.9530620006084
3.6466666666667,-33.7313934620397
3.65333333333336,-33.527470063547
3.66000000000003,-33.3420225355149
3.6666666666667,-33.1757098284985
3.67333333333336,-33.0291183621436
3.68000000000003,-32.9027614437694
3.6866666666667,-32.7970788282402
3.69333333333336,-32.7124363930318
3.70000000000003,-32.6491259052006
3.7066666666667,-32.607364860204
3.71333333333336,-32.587296376151
3.72000000000003,-32.5889891309849
3.7266666666667,-32.6124373342587
3.73333333333337,-32.6575607294667
3.74000000000003,-32.7242046272732
3.7466666666667,-32.8121399743513
3.75333333333337,-32.9210634668289
3.76000000000003,-33.0505977214677
3.7666666666667,-33.2002915215825
3.77333333333337,-33.369620158282
3.78000000000003,-33.5579858907911
3.7866666666667,-33.7647185523391
3.79333333333337,-33.9890763302893
3.80000000000003,-34.23024675079
3.8066666666667,-34.4873478991865
3.81333333333337,-34.7594299076968
3.82000000000003,-35.0454767413911
3.8266666666667,-35.3444083122951
3.83333333333337,-35.6550829494489
3.84000000000003,-35.9763002500031
3.8466666666667,-36.3068043329367
3.85333333333337,-36.6452875127744
3.86000000000003,-36.9903944058183
3.8666666666667,-37.3407264759599
3.87333333333337,-37.6948470211833
3.88000000000004,-38.051286595521
3.8866666666667,-38.408548854574
3.89333333333337,-38.7651168059032
3.90000000000004,-39.1194594387399
3.9066666666667,-39.470038700712
3.91333333333337,-39.8153167827422
3.92000000000004,-40.1537636670995
3.9266666666667,-40.4838648878761
3.93333333333337,-40.8041294480469
3.94000000000004,-41.1130978328367
3.9466666666667,-41.4093500554612
3.95333333333337,-41.6915136684896
3.96000000000004,-41.9582716721462
3.9666666666667,-42.2083702498673
3.97333333333337,-42.4406262613619
3.98000000000004,-42.6539344243007
3.9866666666667,-42.8472741175493
