"Small Bottom Face Disp"
"Time (sec)","Linear Displacement3 (mm)"
0,-37.790984320701
0.00666666666666667,-38.1327966494511
0.0133333333333333,-38.475047889205
0.02,-38.8164010880784
0.0266666666666667,-39.1555085549538
0.0333333333333333,-39.4910175336145
0.04,-39.8215761104968
0.0466666666666667,-40.1458393221654
0.0533333333333333,-40.4624754246041
0.06,-40.7701722828103
0.0666666666666667,-41.0676438360434
0.0733333333333333,-41.3536365914685
0.08,-41.6269360968914
0.0866666666666667,-41.8863733418473
0.0933333333333333,-42.1308310354887
0.1,-42.3592497095478
0.106666666666667,-42.5706335951119
0.113333333333333,-42.7640562230463
0.12,-42.9386656996062
0.126666666666667,-43.0936896110698
0.133333333333333,-43.2284395140669
0.14,-43.342314971632
0.146666666666667,-43.4348070988225
0.153333333333333,-43.5055015859813
0.16,-43.5540811723087
0.166666666666667,-43.5803275473149
0.173333333333333,-43.5841226628671
0.18,-43.5654494438869
0.186666666666667,-43.52439189122
0.193333333333333,-43.4611345757406
0.2,-43.3759615283031
0.206666666666667,-43.2692545356495
0.213333333333333,-43.141490857774
0.22,-42.9932403874622
0.226666666666666,-42.8251622777133
0.233333333333333,-42.638001067457
0.24,-42.4325823403354
0.246666666666666,-42.209807955284
0.253333333333333,-41.9706508911599
0.26,-41.7161497506845
0.266666666666666,-41.4474029714493
0.273333333333333,-41.1655627936416
0.28,-40.8718290354513
0.286666666666666,-40.5674427277976
0.293333333333333,-40.2536796600597
0.3,-39.9318438878961
0.306666666666666,-39.6032612530082
0.313333333333333,-39.2692729628655
0.32,-38.931229275981
0.326666666666666,-38.5904833353668
0.333333333333333,-38.248385189341
0.34,-37.9062760349789
0.346666666666666,-37.5654827152573
0.353333333333333,-37.2273124964227
0.36,-36.8930481473901
0.366666666666666,-36.5639433381417
0.373333333333333,-36.2412183692345
0.38,-35.9260562397127
0.386666666666666,-35.6195990560578
0.393333333333333,-35.3229447803588
0.4,-35.0371443117218
0.406666666666666,-34.7631988911332
0.413333333333333,-34.5020578165879
0.419999999999999,-34.2546164523412
0.426666666666666,-34.0217145136778
0.433333333333333,-33.8041346066308
0.439999999999999,-33.6026010006426
0.446666666666666,-33.4177786112426
0.453333333333333,-33.2502721694123
0.459999999999999,-33.1006255544069
0.466666666666666,-32.9693212673746
0.473333333333333,-32.8567800241363
0.479999999999999,-32.763360446923
0.486666666666666,-32.6893588366732
0.493333333333333,-32.6350090096323
0.499999999999999,-32.6004821844132
0.506666666666666,-32.5858869083423
0.513333333333333,-32.5912690147568
0.519999999999999,-32.6166116059088
0.526666666666666,-32.6618350592039
0.533333333333333,-32.7267970576114
0.54,-32.8112926481854
0.546666666666666,-32.915054335661
0.553333333333333,-33.0377522210158
0.56,-33.1789941976317
0.566666666666666,-33.3383262202335
0.573333333333333,-33.5152326640531
0.58,-33.709136793634
0.586666666666667,-33.9194013622993
0.593333333333333,-34.1453293645261
0.6,-34.3861649642492
0.606666666666667,-34.6410946224395
0.613333333333333,-34.9092484471332
0.62,-35.1897017884056
0.626666666666667,-35.4814770995875
0.633333333333334,-35.7835460842987
0.64,-36.0948321466394
0.646666666666667,-36.4142131591467
0.653333333333334,-36.7405245599283
0.66,-37.0725627867526
0.666666666666667,-37.4090890518762
0.673333333333334,-37.7488334570584
0.68,-38.0904994436421
0.686666666666667,-38.4327685678211
0.693333333333334,-38.774305586372
0.700000000000001,-39.1137638332634
0.706666666666667,-39.4497908627726
0.713333333333334,-39.781034330114
0.720000000000001,-40.1061480762049
0.726666666666667,-40.4237983791363
0.733333333333334,-40.7326703312573
0.740000000000001,-41.0314742975849
0.746666666666668,-41.3189524085729
0.753333333333334,-41.5938850381559
0.760000000000001,-41.8550972164742
0.766666666666668,-42.1014649257935
0.773333333333334,-42.3319212278789
0.780000000000001,-42.5454621714708
0.786666666666668,-42.7411524295289
0.793333333333335,-42.9181306175414
0.800000000000001,-43.0756142464185
0.806666666666668,-43.212904266265
0.813333333333335,-43.3293891606192
0.820000000000001,-43.4245485545057
0.826666666666668,-43.4979563038347
0.833333333333335,-43.5492830382308
0.840000000000002,-43.5782981342389
0.846666666666668,-43.5848711009764
0.853333333333335,-43.5689723656168
0.860000000000002,-43.5306734515477
0.866666666666668,-43.4701465475793
0.873333333333335,-43.3876634721289
0.880000000000002,-43.283594041818
0.886666666666668,-43.1584038593247
0.893333333333335,-43.0126515405733
0.900000000000002,-42.8469854063692
0.906666666666669,-42.6621396683266
0.913333333333335,-42.4589301433389
0.920000000000002,-42.2382495348629
0.926666666666669,-42.0010623228534
0.933333333333335,-41.7483993072718
0.940000000000002,-41.4813518526416
0.946666666666669,-41.2010658831026
0.953333333333336,-40.9087356787989
0.960000000000002,-40.6055975251882
0.966666666666669,-40.292923266987
0.973333333333336,-39.9720138179451
0.980000000000002,-39.6441926764891
0.986666666666669,-39.3107994955124
0.993333333333336,-38.9731837522321
1,-38.6326985611339
1.00666666666667,-38.2906946696294
1.01333333333334,-37.9485146722186
1.02,-37.6074874747482
1.02666666666667,-37.2689230358676
1.03333333333334,-36.9341074080789
1.04,-36.6042980959561
1.04666666666667,-36.2807197442364
1.05333333333334,-35.9645601636717
1.06,-35.6569666978396
1.06666666666667,-35.3590429296288
1.07333333333334,-35.0718457219193
1.08,-34.7963825831173
1.08666666666667,-34.5336093447547
1.09333333333333,-34.2844281353511
1.1,-34.0496856322094
1.10666666666667,-33.8301715707918
1.11333333333333,-33.6266174898178
1.12,-33.4396956892451
1.12666666666667,-33.270018377826
1.13333333333333,-33.1181369869696
1.14,-32.9845416281554
1.14666666666667,-32.8696606721128
1.15333333333333,-32.7738604293639
1.16,-32.6974449134913
1.16666666666667,-32.6406556705901
1.17333333333333,-32.6036716607542
1.18,-32.5866091800769
1.18666666666667,-32.5895218144737
1.19333333333333,-32.6124004196078
1.2,-32.6551731242621
1.20666666666667,-32.7177053576117
1.21333333333333,-32.7997999039528
1.22,-32.9011969914875
1.22666666666667,-33.0215744246961
1.23333333333333,-33.1605477726079
1.24,-33.3176706278425
1.24666666666667,-33.4924349536084
1.25333333333333,-33.6842715378463
1.26,-33.8925505753643
1.26666666666667,-34.116582400078
1.27333333333333,-34.3556183903075
1.28,-34.6088520704637
1.28666666666667,-34.8754204323458
1.29333333333333,-35.1544054986586
1.3,-35.4448361502225
1.30666666666667,-35.7456902366921
1.31333333333333,-36.055896988427
1.32,-36.3743397444875
1.32666666666667,-36.6998590085842
1.33333333333333,-37.0312558412325
1.34,-37.3672955924061
1.34666666666667,-37.7067119746888
1.35333333333333,-38.0482114723792
1.36,-38.3904780772655
1.36666666666667,-38.7321783369482
1.37333333333333,-39.0719666967218
1.38,-39.408491111231
1.38666666666667,-39.7403988974652
1.39333333333333,-40.0663427962426
1.4,-40.3849872052323
1.40666666666666,-40.6950145428516
1.41333333333333,-40.9951316991195
1.42,-41.2840765267997
1.42666666666666,-41.5606243239797
1.43333333333333,-41.8235942576457
1.44,-42.0718556768419
1.44666666666666,-42.3043342636711
1.45333333333333,-42.5200179707018
1.46,-42.7179626942879
1.46666666666666,-42.8972976348653
1.47333333333333,-43.0572302974368
1.48,-43.1970510881713
1.48666666666666,-43.3161374662677
1.49333333333333,-43.4139576139459
1.5,-43.4900735915566
1.50666666666666,-43.5441439493133
1.51333333333333,-43.5759257719786
1.52,-43.5852761379277
1.52666666666666,-43.5721529793097
1.53333333333333,-43.5366153354688
1.54,-43.4788229973161
1.54666666666666,-43.3990355458919
1.55333333333333,-43.2976107938801
1.56,-43.1750026442536
1.56666666666666,-43.0317583855001
1.57333333333333,-42.8685154479252
1.58,-42.685997650314
1.58666666666666,-42.4850109706766
1.59333333333333,-42.2664388788742
1.6,-42.0312372725468
1.60666666666666,-41.7804290609147
1.61333333333333,-41.5150984436387
1.62,-41.2363849339811
1.62666666666666,-40.9454771769629
1.63333333333333,-40.643606614047
1.64,-40.3320410460811
1.64666666666666,-40.0120781457914
1.65333333333333,-39.6850389700447
1.66,-39.3522615204066
1.66666666666666,-39.0150943982358
1.67333333333333,-38.6748905977252
1.68,-38.3330014769566
1.68666666666666,-37.9907709432577
1.69333333333333,-37.6495298849884
1.7,-37.3105908774261
1.70666666666666,-36.9752431857379
1.71333333333333,-36.6447480832112
1.72,-36.3203344980507
1.72666666666666,-36.0031949972181
1.73333333333333,-35.6944821110822
1.73999999999999,-35.3953049981377
1.74666666666666,-35.1067264448106
1.75333333333333,-34.8297601914702
1.75999999999999,-34.5653685722573
1.76666666666666,-34.3144604532763
1.77333333333333,-34.0778894511053
1.77999999999999,-33.8564524114943
1.78666666666666,-33.6508881265517
1.79333333333333,-33.4618762676712
1.79999999999999,-33.2900365109228
1.80666666666666,-33.1359278316083
1.81333333333333,-33.0000479451361
1.81999999999999,-32.8828328722875
1.82666666666666,-32.7846566082801
1.83333333333333,-32.7058308767527
1.83999999999999,-32.6466049518549
1.84666666666666,-32.6071655339808
1.85333333333333,-32.5876366672921
1.85999999999999,-32.5880796899796
1.86666666666666,-32.6084932111683
1.87333333333333,-32.6488131114308
1.87999999999999,-32.7089125669752
1.88666666666666,-32.7886021006849
1.89333333333333,-32.887629666235
1.89999999999999,-33.0056807744661
1.90666666666666,-33.1423786739901
1.91333333333333,-33.2972846005983
1.91999999999999,-33.469898112387
1.92666666666666,-33.6596575295589
1.93333333333333,-33.8659404995637
1.93999999999999,-34.0880647095553
1.94666666666666,-34.3252887690395
1.95333333333333,-34.5768132860222
1.95999999999999,-34.8417821599229
1.96666666666666,-35.1192841139632
1.97333333333333,-35.408354488674
1.97999999999999,-35.707977316569
1.98666666666666,-36.0170876959248
1.99333333333333,-36.3345744789968
1.99999999999999,-36.6592832869109
2.00666666666666,-36.9900198599492
2.01333333333333,-37.3255537480291
2.01999999999999,-37.6646223419229
2.02666666666666,-38.0059352412457
2.03333333333333,-38.3481789505216
2.03999999999999,-38.6900218898065
2.04666666666666,-39.0301197014792
2.05333333333333,-39.3671208300024
2.05999999999999,-39.6996723467815
2.06666666666666,-40.0264259878013
2.07333333333333,-40.3460443675777
2.07999999999999,-40.6572073291974
2.08666666666666,-40.9586183869005
2.09333333333333,-41.2490112148505
2.09999999999999,-41.5271561334782
2.10666666666666,-41.7918665431196
2.11333333333333,-42.0420052536235
2.11999999999999,-42.2764906581929
2.12666666666666,-42.4943026999503
2.13333333333333,-42.6944885805862
2.14,-42.8761681619256
2.14666666666666,-43.0385390133327
2.15333333333333,-43.1808810605098
2.16,-43.3025607944206
2.16666666666666,-43.4030350027128
2.17333333333333,-43.4818539901035
2.18,-43.5386642586531
2.18666666666666,-43.5732106236469
2.19333333333333,-43.5853377458674
2.2,-43.5749910663058
2.20666666666666,-43.5422171348493
2.21333333333333,-43.487163329789
2.22,-43.4100769709712
2.22666666666666,-43.3113038344062
2.23333333333333,-43.1912860820139
2.24,-43.0505596252579
2.24666666666666,-42.8897509465665
2.25333333333333,-42.7095734072427
2.26,-42.5108230750633
2.26666666666666,-42.2943741088797
2.27333333333333,-42.0611737412211
2.28,-41.8122369031094
2.28666666666667,-41.5486405379779
2.29333333333333,-41.2715176537139
2.3,-40.9820511633727
2.30666666666667,-40.6814675660267
2.31333333333333,-40.3710305194894
2.32,-40.0520343562967
2.32666666666667,-39.7257975933302
2.33333333333333,-39.3936564838487
2.34,-39.056958658486
2.34666666666667,-38.7170568989993
2.35333333333333,-38.3753030852766
2.36,-38.0330423523794
2.36666666666667,-37.6916074902798
2.37333333333333,-37.352313614527
2.38,-37.0164531314178
2.38666666666667,-36.6852910164439
2.39333333333333,-36.3600604199226
2.4,-36.041958608882
2.40666666666667,-35.7321432495395
2.41333333333333,-35.4317290301761
2.42,-35.1417846199322
2.42666666666667,-34.8633299551059
2.43333333333334,-34.597333840974
2.44,-34.344711854037
2.44666666666667,-34.1063245269363
2.45333333333334,-33.8829757961424
2.46,-33.6754116908814
2.46666666666667,-33.4843192406515
2.47333333333334,-33.3103255780934
2.48,-33.1539972138879
2.48666666666667,-33.015839460757
2.49333333333334,-32.8962959845023
2.5,-32.7957484613003
2.50666666666667,-32.7145163221464
2.51333333333334,-32.6528565673609
2.52,-32.6109636363897
2.52666666666667,-32.5889693207112
2.53333333333334,-32.5869427104419
2.54,-32.6048901681768
2.54666666666667,-32.6427553266434
2.55333333333334,-32.7004191098552
2.56,-32.7776997805554
2.56666666666667,-32.874353019808
2.57333333333334,-32.9900720475545
2.58000000000001,-33.1244877957782
2.58666666666667,-33.2771691485373
2.59333333333334,-33.4476232655082
2.60000000000001,-33.6352960077613
2.60666666666667,-33.8395724862424
2.61333333333334,-34.0597777547976
2.62000000000001,-34.2951776705281
2.62666666666667,-34.5449799447569
2.63333333333334,-34.808335407905
2.64000000000001,-35.0843395110828
2.64666666666667,-35.3720340862015
2.65333333333334,-35.6704093848761
2.66000000000001,-35.9784064143499
2.66666666666667,-36.2949195861172
2.67333333333334,-36.6187996898916
2.68000000000001,-36.9488572020963
2.68666666666667,-37.2838659341775
2.69333333333334,-37.622567021832
2.70000000000001,-37.9636732517446
2.70666666666667,-38.3058737177398
2.71333333333334,-38.6478387934237
2.72000000000001,-38.98822540353
2.72666666666668,-39.3256825713598
2.73333333333334,-39.6588572150101
2.74000000000001,-39.9864001606061
2.74666666666668,-40.3069723365678
2.75333333333334,-40.6192511091251
2.76000000000001,-40.9219367159217
2.76666666666668,-41.2137587516688
2.77333333333334,-41.4934826574839
2.78000000000001,-41.7599161638077
2.78666666666668,-42.0119156356695
2.79333333333334,-42.2483922685799
2.80000000000001,-42.4683180834821
2.80666666666668,-42.6707316699752
2.81333333333334,-42.854743628433
2.82000000000001,-43.019541663647
2.82666666666668,-43.1643952851953
2.83333333333334,-43.2886600728488
2.84000000000001,-43.3917814689137
2.84666666666668,-43.4732980634478
2.85333333333335,-43.5328443427039
2.86000000000001,-43.5701528759145
2.86666666666668,-43.5850559205589
2.87333333333335,-43.5774864315096
2.88000000000001,-43.5474784648641
2.88666666666668,-43.4951669727809
2.89333333333335,-43.4207869911897
2.90000000000001,-43.3246722277791
2.90666666666668,-43.2072530631127
2.91333333333335,-43.0690539830391
2.92000000000001,-42.9106904656671
2.92666666666668,-42.7328653510343
2.93333333333335,-42.5363647261284
2.94000000000001,-42.3220533620904
2.94666666666668,-42.0908697441696
2.95333333333335,-41.843820738268
2.96000000000001,-41.581975940668
2.96666666666668,-41.3064617597285
2.97333333333335,-41.0184552799444
2.98000000000001,-40.7191779597507
2.98666666666668,-40.4098892148144
2.99333333333335,-40.0918799382743
3.00000000000002,-39.7664660084694
3.00666666666668,-39.4349818331583
3.01333333333335,-39.0987739770873
3.02000000000002,-38.7591949170673
3.02666666666668,-38.4175969654955
3.03333333333335,-38.0753263995829
3.04000000000002,-37.7337178294741
3.04666666666668,-37.3940888340553
3.05333333333335,-37.0577348886098
3.06000000000002,-36.7259246036944
3.06666666666668,-36.3998952897427
3.07333333333335,-36.0808488570611
3.08000000000002,-35.7699480561328
3.08666666666668,-35.4683130585786
3.09333333333335,-35.1770183748146
3.10000000000002,-34.8970901004522
3.10666666666668,-34.6295034798816
3.11333333333335,-34.3751807722976
3.12000000000002,-34.134989402719
3.12666666666668,-33.9097403783377
3.13333333333335,-33.7001869488378
3.14000000000002,-33.5070234881473
3.14666666666669,-33.3308845744294
3.15333333333335,-33.172344244973
3.16000000000002,-33.0319154029817
3.16666666666669,-32.9100493540662
3.17333333333335,-32.8071354514792
3.18000000000002,-32.7235008307581
3.18666666666669,-32.6594102164201
3.19333333333335,-32.6150657856446
3.20000000000002,-32.5906070764186
3.20666666666669,-32.5861109303895
3.21333333333335,-32.6015914635866
3.22000000000002,-32.6370000612121
3.22666666666669,-32.6922253958019
3.23333333333335,-32.7670934711644
3.24000000000002,-32.861367697579
3.24666666666669,-32.9747490067155
3.25333333333335,-33.1068760175743
3.26000000000002,-33.2573252673996
3.26666666666669,-33.4256115239263
3.27333333333335,-33.6111881974433
3.28000000000002,-33.8134478729505
3.28666666666669,-34.0317229840998
3.29333333333336,-34.2652866516127
3.30000000000002,-34.5133537094227
3.30666666666669,-34.7750819418628
3.31333333333336,-35.0495735547942
3.32000000000002,-35.3358769026313
3.32666666666669,-35.6329884917542
3.33333333333336,-35.9398552788165
3.34000000000002,-36.2553772799697
3.34666666666669,-36.5784105040486
3.35333333333336,-36.9077702193472
3.36000000000002,-37.2422345597838
3.36666666666669,-37.5805484720838
3.37333333333336,-37.9214280011451
3.38000000000002,-38.263564906076
3.38666666666669,-38.6056315945854
3.39333333333336,-38.9462863585381
3.40000000000002,-39.2841788886559
3.40666666666669,-39.6179560416295
3.41333333333336,-39.9462678283975
3.42000000000002,-40.2677735881183
3.42666666666669,-40.5811483085017
3.43333333333336,-40.8850890497294
3.44000000000003,-41.1783214262534
3.44666666666669,-41.4596060983633
3.45333333333336,-41.7277452235991
3.46000000000003,-41.9815888168823
3.46666666666669,-42.2200409676732
3.47333333333336,-42.4420658625302
3.48000000000003,-42.6466935621535
3.48666666666669,-42.8330254833319
3.49333333333336,-43.0002395381381
3.50000000000003,-43.1475948852319
3.50666666666669,-43.2744362511654
3.51333333333336,-43.3801977831251
3.52000000000003,-43.4644063985251
3.52666666666669,-43.5266846012411
3.53333333333336,-43.5667527389925
3.54000000000003,-43.5844306813826
3.54666666666669,-43.5796389033313
3.55333333333336,-43.5523989640328
3.56000000000003,-43.5028333770722
3.56666666666669,-43.4311648728847
3.57333333333336,-43.3377150602794
3.58000000000003,-43.2229024992126
3.5866666666667,-43.0872402023281
3.59333333333336,-42.9313325879183
3.60000000000003,-42.7558719118491
3.6066666666667,-42.5616342105675
3.61333333333336,-42.3494747915277
3.62000000000003,-42.1203233111671
3.6266666666667,-41.8751784838942
3.63333333333336,-41.6151024683698
3.64000000000003,-41.3412149796287
3.6466666666667,-41.0546871772685
3.65333333333336,-40.7567353810016
3.66000000000003,-40.4486146653016
3.6666666666667,-40.1316123846732
3.67333333333336,-39.807041680237
3.68000000000003,-39.4762350168511
3.6866666666667,-39.1405377979267
3.69333333333336,-38.8013021024582
3.70000000000003,-38.4598805856293
3.7066666666667,-38.1176205807326
3.71333333333336,-37.7758584361123
3.72000000000003,-37.4359141164829
3.7266666666667,-37.099086093366
3.73333333333337,-36.7666465446169
3.74000000000003,-36.4398368781481
3.7466666666667,-36.1198635901117
3.75333333333337,-35.8078944630325
3.76000000000003,-35.5050551047963
3.7666666666667,-35.2124258250454
3.77333333333337,-34.9310388415051
3.78000000000003,-34.6618758051025
3.7866666666667,-34.4058656295067
3.79333333333337,-34.1638826079493
3.80000000000003,-33.9367447979068
3.8066666666667,-33.7252126524687
3.81333333333337,-33.5299878759679
3.82000000000003,-33.3517124807371
3.8266666666667,-33.1909680216393
3.83333333333337,-33.0482749853053
3.84000000000003,-32.9240923117602
3.8466666666667,-32.8188170273012
3.85333333333337,-32.7327839690733
3.86000000000003,-32.6662655837246
3.8666666666667,-32.6194717847763
3.87333333333337,-32.5925498558602
3.88000000000004,-32.5855843897121
3.8866666666667,-32.5985972557167
3.89333333333337,-32.6315475918255
3.90000000000004,-32.6843318197609
3.9066666666667,-32.7567836855345
3.91333333333337,-32.8486743303829
3.92000000000004,-32.959712400221
3.9266666666667,-33.0895442045735
3.93333333333337,-33.2377539386171
3.94000000000004,-33.4038639844141
3.9466666666667,-33.5873353095742
3.95333333333337,-33.7875679834177
3.96000000000004,-34.0039018321804
3.9666666666667,-34.2356172558504
3.97333333333337,-34.4819362298417
3.98000000000004,-34.7420235148447
